Incident energy ; 
Incident energy ; 
Incident energy ; σ(E)
1.0E-5 ; 78.10355
1.0046157902783946E-5 ; 77.9318736197544
1.0092528860766835E-5 ; 77.75940481734182
1.01391138573668E-5 ; 77.58613993510765
1.018591388054117E-5 ; 77.41207529851458
1.0232929922807536E-5 ; 77.23720721606409
1.0280162981264725E-5 ; 77.06153197921864
1.032761405761398E-5 ; 76.88504586232271
1.0375284158180127E-5 ; 76.70774512252423
1.0423174293933036E-5 ; 76.52962599969463
1.0471285480508985E-5 ; 76.35068471634949
1.0519618738232235E-5 ; 76.17091747756818
1.0568175092136585E-5 ; 75.99032047091382
1.0616955571987242E-5 ; 75.80888986635185
1.0665961212302568E-5 ; 75.63951509504317
1.071519305237607E-5 ; 75.47190234160253
1.076465213629835E-5 ; 75.3035159228441
1.0814339512979376E-5 ; 75.13435226769094
1.0864256236170644E-5 ; 74.96440778858288
1.091440336448757E-5 ; 74.79367888140021
1.0964781961431852E-5 ; 74.62216192538759
1.1015393095414145E-5 ; 74.44985328307682
1.1066237839776654E-5 ; 74.27674930021
1.111731727281592E-5 ; 74.10284630566184
1.1168632477805611E-5 ; 73.92814061136214
1.122018454301963E-5 ; 73.7526285122171
1.1271974561755094E-5 ; 73.58229989169891
1.1324003632355578E-5 ; 73.41935483215975
1.1376272858234309E-5 ; 73.25565765239892
1.1428783347897712E-5 ; 73.09120488078716
1.1481536214968817E-5 ; 72.92599302967095
1.153453257821093E-5 ; 72.76001859529839
1.1587773561551262E-5 ; 72.59327805774527
1.1641260294104908E-5 ; 72.4257678808399
1.16949939101987E-5 ; 72.25748451208844
1.1748975549395302E-5 ; 72.0884243825994
1.1803206356517298E-5 ; 71.9185839070083
1.1857687481671597E-5 ; 71.74795948340105
1.1912420080273739E-5 ; 71.58546065699863
1.1967405313072443E-5 ; 71.42635450760858
1.2022644346174132E-5 ; 71.266513957601
1.2078138351067799E-5 ; 71.10593561713661
1.2133888504649761E-5 ; 70.94461608072939
1.2189895989248674E-5 ; 70.78255192717423
1.2246161992650489E-5 ; 70.61973971947468
1.230268770812381E-5 ; 70.45617600476962
1.2359474334445094E-5 ; 70.29185731426033
1.241652307592412E-5 ; 70.12678016313677
1.2473835142429432E-5 ; 69.96094105050393
1.2531411749414155E-5 ; 69.80382934127417
1.2589254117941661E-5 ; 69.65393616473304
1.2647363474711522E-5 ; 69.50335111272477
1.270574105208542E-5 ; 69.35207099169745
1.2764388088113434E-5 ; 69.20009259335815
1.2823305826560205E-5 ; 69.04741269460527
1.2882495516931348E-5 ; 68.89402805745998
1.2941958414499863E-5 ; 68.73993542899774
1.30016957803329E-5 ; 68.5851315412791
1.3061708881318404E-5 ; 68.42961311128045
1.312199899019204E-5 ; 68.27337684082443
1.3182567385564074E-5 ; 68.11641941651017
1.3243415351946644E-5 ; 67.95873750964266
1.3304544179780901E-5 ; 67.80032777616233
1.3365955165464433E-5 ; 67.64118685657415
1.3427649611378641E-5 ; 67.4813113758765
1.3489628825916533E-5 ; 67.32069794348931
1.355189412351035E-5 ; 67.15934315318229
1.3614446824659511E-5 ; 66.99724358300276
1.3677288255958495E-5 ; 66.83439579520311
1.374041975012515E-5 ; 66.6707963361677
1.3803842646028839E-5 ; 66.52429165035119
1.3867558288718867E-5 ; 66.38030143402369
1.3931568029453036E-5 ; 66.23564658905543
1.3995873225726178E-5 ; 66.09032404766013
1.406047524129913E-5 ; 65.944330727891
1.4125375446227526E-5 ; 65.79766353357577
1.4190575216890925E-5 ; 65.65031935425081
1.4256075936021879E-5 ; 65.5022950650954
1.4321878992735424E-5 ; 65.35358752686513
1.4387985782558437E-5 ; 65.20419358582559
1.445439770745928E-5 ; 65.05411007368527
1.452111617587742E-5 ; 64.90333380752872
1.4588142602753473E-5 ; 64.75186158974866
1.4655478409559099E-5 ; 64.59969020797831
1.4723125024327194E-5 ; 64.44681643502327
1.4791083881682072E-5 ; 64.29323702879327
1.4859356422870059E-5 ; 64.13894873223302
1.4927944095789943E-5 ; 63.98394827325345
1.4996848355023741E-5 ; 63.82823236466211
1.5066070661867417E-5 ; 63.68940209980701
1.5135612484362071E-5 ; 63.55077464917326
1.5205475297324938E-5 ; 63.411507323300576
1.5275660582380732E-5 ; 63.27159716865895
1.534616982799294E-5 ; 63.13104121808575
1.5417004529495585E-5 ; 62.989836490722325
1.5488166189124797E-5 ; 62.84797999195106
1.555965631605075E-5 ; 62.70546871333179
1.563147642640954E-5 ; 62.56229963253816
1.5703628043335517E-5 ; 62.41846971329324
1.5776112696993467E-5 ; 62.273975905305335
1.584893192461114E-5 ; 62.128815144203166
1.59220872705117E-5 ; 61.98298435147116
1.5995580286146678E-5 ; 61.83648043438376
1.6069412530128755E-5 ; 61.68930028594013
1.6143585568264868E-5 ; 61.54144078479808
1.62181009735893E-5 ; 61.39289879520814
1.6292960326397216E-5 ; 61.25303376864043
1.636816521427807E-5 ; 61.11950718938843
1.6443717232149325E-5 ; 60.98536427944994
1.651961798229015E-5 ; 60.85060219397191
1.6595869074375598E-5 ; 60.715218074969826
1.667247212551061E-5 ; 60.579209051267405
1.6749428760264382E-5 ; 60.442572238435545
1.6826740610704672E-5 ; 60.30530473873141
1.6904409316432632E-5 ; 60.167403641036586
1.6982436524617425E-5 ; 60.028866020795654
1.7060823890031244E-5 ; 59.88968893995396
1.7139573075084254E-5 ; 59.7498694468956
1.721868574986006E-5 ; 59.60940457638046
1.7298163592150998E-5 ; 59.468291349481525
1.7378008287493764E-5 ; 59.32652677352167
1.745822152920504E-5 ; 59.184107842010334
1.7538805018417602E-5 ; 59.04805400115246
1.7619760464116275E-5 ; 58.91896762858988
1.770108958317422E-5 ; 58.78928542040371
1.778279410038923E-5 ; 58.659004626341755
1.78648757485205E-5 ; 58.52812248345712
1.7947336268325247E-5 ; 58.39663621604973
1.80301774085957E-5 ; 58.26454303560744
1.8113400926196025E-5 ; 58.131840140747094
1.8197008586099827E-5 ; 57.99852471715472
1.828100216142741E-5 ; 57.86459393752618
1.8365383433483475E-5 ; 57.730044961506984
1.8450154191794737E-5 ; 57.59487493563238
1.8535316234148105E-5 ; 57.45908099326641
1.8620871366628657E-5 ; 57.322660254541404
1.8706821403658016E-5 ; 57.18560982629676
1.8793168168032686E-5 ; 57.05449734253775
1.8879913490962926E-5 ; 56.92938213440642
1.8967059212111444E-5 ; 56.803689420713724
1.9054607179632484E-5 ; 56.67741653581504
1.914255925021086E-5 ; 56.55056080176187
1.9230917289101577E-5 ; 56.423119528244705
1.931968317016922E-5 ; 56.295090012536164
1.9408858775927792E-5 ; 56.16646953943363
1.9498445997580456E-5 ; 56.037255381201774
1.958844673505989E-5 ; 55.90744479751454
1.967886289706843E-5 ; 55.77703503539709
1.976969640111862E-5 ; 55.646023329167384
1.9860949173573716E-5 ; 55.51440690037777
1.9952623149688786E-5 ; 55.38218295775567
2.0044720273651594E-5 ; 55.25641175753815
2.0137242498623894E-5 ; 55.13757719868746
2.0230191786782718E-5 ; 55.01819412443534
2.032357010936221E-5 ; 54.89826000294968
2.0417379446695274E-5 ; 54.77777229071203
2.0511621788255667E-5 ; 54.656728432463495
2.0606299132700007E-5 ; 54.53512586115086
2.0701413487910412E-5 ; 54.41296199787175
2.0796966871036937E-5 ; 54.29023425182012
2.089296130854041E-5 ; 54.16694002023132
2.0989398836235246E-5 ; 54.04307668832704
2.1086281499332888E-5 ; 53.9186416292595
2.1183611352485E-5 ; 53.793632204056024
2.1281390459827135E-5 ; 53.66804576156293
2.1379620895022323E-5 ; 53.541879638389545
2.147830474130533E-5 ; 53.41513115885134
2.1577444091526645E-5 ; 53.28779763491348
2.1677041048196962E-5 ; 53.159876366133666
2.177709772353159E-5 ; 53.03136463960508
2.187761623949552E-5 ; 52.90266683071729
2.197859872784823E-5 ; 52.78867941358456
2.2080047330189015E-5 ; 52.67416585443992
2.2181964198002195E-5 ; 52.55912372472229
2.228435149270303E-5 ; 52.4435505846607
2.238721138568338E-5 ; 52.32744398322277
2.2490546058357826E-5 ; 52.21080145806262
2.2594357702209782E-5 ; 52.09362053546883
2.2698648518838212E-5 ; 51.97589873031173
2.2803420720004162E-5 ; 51.857633545990815
2.290867652767775E-5 ; 51.738822474381806
2.3014418174085088E-5 ; 51.619462995783536
2.312064790175594E-5 ; 51.499552578864325
2.322736796357105E-5 ; 51.37908868060841
2.3334580622810045E-5 ; 51.25806874626198
2.344228815319923E-5 ; 51.13649020927917
2.355049283896009E-5 ; 51.01435049126727
2.3659196974857566E-5 ; 50.89164700193238
2.3768402866248784E-5 ; 50.77070640207392
2.387811282913178E-5 ; 50.66075361447307
2.39883291901949E-5 ; 50.55029330786414
2.409905428686593E-5 ; 50.4393231396458
2.42102904673618E-5 ; 50.32784075640377
2.432204009073816E-5 ; 50.215843793861005
2.4434305526939713E-5 ; 50.103329876827324
2.4547089156850286E-5 ; 49.99029661914922
2.466039337234336E-5 ; 49.876741623659186
2.477422057633286E-5 ; 49.762662482124846
2.4888573182823903E-5 ; 49.648056775198114
2.5003453616964294E-5 ; 49.53292207236349
2.511886431509577E-5 ; 49.41725593188681
2.5234807724805754E-5 ; 49.30105590076334
2.5351286304979072E-5 ; 49.18431951466591
2.5468302525850393E-5 ; 49.06704429789239
2.5585858869056428E-5 ; 48.94922776331339
2.5703957827688645E-5 ; 48.83912576943301
2.5822601906345957E-5 ; 48.73262831335653
2.5941793621188123E-5 ; 48.625639287357615
2.6061535499988922E-5 ; 48.51815642245261
2.6181830082189863E-5 ; 48.41017743918462
2.6302679918953814E-5 ; 48.30170004757545
2.6424087573219448E-5 ; 48.192721947076656
2.6546055619755363E-5 ; 48.08324082652103
2.6668586645214807E-5 ; 47.973254364073426
2.6791683248190313E-5 ; 47.862760227181745
2.691534803926914E-5 ; 47.75175607252718
2.7039583641088407E-5 ; 47.64023954597471
2.7164392688390837E-5 ; 47.528208282523025
2.7289777828080403E-5 ; 47.415659906254696
2.7415741719278808E-5 ; 47.30259203028533
2.7542287033381633E-5 ; 47.19270727743003
2.7669416454115126E-5 ; 47.089731768612324
2.7797132677592882E-5 ; 46.98628094644214
2.792543841237336E-5 ; 46.88235261697271
2.8054336379517105E-5 ; 46.77794457613045
2.818382931264455E-5 ; 46.67305460966825
2.8313919957993788E-5 ; 46.567680493118594
2.8444611074479138E-5 ; 46.46181999174616
2.8575905433749437E-5 ; 46.355470860500645
2.870780582024692E-5 ; 46.248630843968954
2.8840315031266056E-5 ; 46.14129767632766
2.8973435877013213E-5 ; 46.03346908129462
2.910717118066602E-5 ; 45.92514277208089
2.924152377843337E-5 ; 45.816316451342146
2.9376496519615307E-5 ; 45.70709894467215
2.951209226666384E-5 ; 45.60733518735568
2.9648313895243394E-5 ; 45.507110941458045
2.978516429429191E-5 ; 45.40642408146049
2.992264636608189E-5 ; 45.305272472033444
3.006076302628229E-5 ; 45.20365396799096
3.019951720402013E-5 ; 45.10156641424541
3.0338911841942718E-5 ; 44.999007645761694
3.047894989627983E-5 ; 44.8959754875115
3.061963433690676E-5 ; 44.79246775442687
3.076096814740705E-5 ; 44.688482251354145
3.090295432513592E-5 ; 44.58401677300719
3.104559588128356E-5 ; 44.4790691039209
3.1188895840939353E-5 ; 44.37363701840391
3.1332857243155826E-5 ; 44.27298623353508
3.1477483141013176E-5 ; 44.175773718693165
3.1622776601683795E-5 ; 44.078112491270346
3.176874070649769E-5 ; 43.98000048010341
3.191537855100758E-5 ; 43.88143560446914
3.2062693245054676E-5 ; 43.782415774040075
3.221068791283435E-5 ; 43.6829388888404
3.235936569296281E-5 ; 43.583002839201086
3.2508729738543404E-5 ; 43.48260550571539
3.26587832172336E-5 ; 43.38174475919377
3.28095293113119E-5 ; 43.28041846061893
3.296097121774576E-5 ; 43.178624461100185
3.3113112148259076E-5 ; 43.07636060182806
3.326595532940047E-5 ; 42.98137011540876
3.341950400261143E-5 ; 42.88659741752419
3.357376142429545E-5 ; 42.79138726874206
3.3728730865886854E-5 ; 42.69573764988078
3.3884415613920276E-5 ; 42.599646532438584
3.404081897010009E-5 ; 42.503111878550705
3.419794425137087E-5 ; 42.40613164094588
3.435579478998743E-5 ; 42.30870376290312
3.451437393358564E-5 ; 42.210826178208
3.467368504525317E-5 ; 42.112496811109025
3.4833731503601165E-5 ; 42.013713576273304
3.4994516702835694E-5 ; 41.91447437874256
3.515604405282983E-5 ; 41.82552168319023
3.53183169791957E-5 ; 41.73653770128824
3.5481338923357534E-5 ; 41.647142987987664
3.564511334262439E-5 ; 41.55733564743849
3.580964371026362E-5 ; 41.467113775039834
3.5974933515574234E-5 ; 41.376475457399714
3.614098626396132E-5 ; 41.28541877229417
3.63078054770101E-5 ; 41.19394178862674
3.6475394692560806E-5 ; 41.102042566387354
3.6643757464783335E-5 ; 41.00971915661141
3.681289736425313E-5 ; 40.91696960133815
3.698281797802659E-5 ; 40.82379193356934
3.715352290971728E-5 ; 40.730184177227436
3.7325015779572066E-5 ; 40.636144347113856
3.749730022454834E-5 ; 40.541670448866675
3.767037989839085E-5 ; 40.44676047891839
3.784425847170935E-5 ; 40.351412424453464
3.8018939632056124E-5 ; 40.2556242633657
3.8194427084004644E-5 ; 40.15939396421522
3.8370724549227846E-5 ; 40.06271948618542
3.854783576657721E-5 ; 39.965598779039716
3.872576449216173E-5 ; 39.86802978307819
3.8904514499428046E-5 ; 39.78153144220966
3.908408957924017E-5 ; 39.69644924826155
3.9264493539960015E-5 ; 39.61097433274971
3.9445730207527845E-5 ; 39.525104882953855
3.9627803425543934E-5 ; 39.43883907778642
3.9810717055349695E-5 ; 39.35217508775413
3.999447497610978E-5 ; 39.265111074919126
4.0179081084894003E-5 ; 39.17764519286011
4.036453929676048E-5 ; 39.08977558663301
4.055085354483835E-5 ; 39.001500392731714
4.07380277804113E-5 ; 38.91281773904854
4.09260659730011E-5 ; 38.82372574483468
4.1114972110452214E-5 ; 38.73422252066004
4.1304750199016105E-5 ; 38.64430616837337
4.149540426343633E-5 ; 38.55397478106191
4.168693834703355E-5 ; 38.463226443011095
4.1879356511791825E-5 ; 38.37205922966373
4.2072662838444376E-5 ; 38.280471207579296
4.226686142656033E-5 ; 38.18846043439286
4.24619563946313E-5 ; 38.09602495877409
4.265795188015926E-5 ; 38.01249798710548
4.285485203974392E-5 ; 37.93084427852636
4.30526610491711E-5 ; 37.84881367355295
4.3251383103500884E-5 ; 37.766404432510605
4.345102241715714E-5 ; 37.6836148076946
4.3651583224016566E-5 ; 37.60044304333322
4.385306977749861E-5 ; 37.51688737555044
4.4055486350655344E-5 ; 37.43294603232863
4.425883723626265E-5 ; 37.348617233470826
4.4463126746910836E-5 ; 37.263899190563066
4.466835921509626E-5 ; 37.17879010693644
4.487453899331323E-5 ; 37.09328817762898
4.508167045414601E-5 ; 37.00739158934747
4.5289757990362046E-5 ; 36.92109852042882
4.5498806015004804E-5 ; 36.83440714080156
4.5708818961487516E-5 ; 36.74731561194697
4.5919801283686855E-5 ; 36.659822086860196
4.613175745603791E-5 ; 36.5719247100109
4.634469197362875E-5 ; 36.488147641131576
4.6558609352295914E-5 ; 36.40966164012176
4.677351412871981E-5 ; 36.330813364191535
4.698941086052151E-5 ; 36.2516011411558
4.7206304126359E-5 ; 36.17202329111105
4.742419852602448E-5 ; 36.09207812639964
4.7643098680541567E-5 ; 36.0117639515742
4.7863009232263804E-5 ; 35.93107906336138
4.8083934844972796E-5 ; 35.85002175062594
4.8305880203977283E-5 ; 35.76859029433434
4.85288500162121E-5 ; 35.68678296751847
4.87528490103386E-5 ; 35.60459803523878
4.897788193684456E-5 ; 35.52203375454764
4.920395356814511E-5 ; 35.43908837445232
4.943106869868354E-5 ; 35.35576013587794
4.965923214503358E-5 ; 35.272047271630036
4.988844874600117E-5 ; 35.18794800635717
5.011872336272725E-5 ; 35.107778224449724
5.035006087879048E-5 ; 35.03131395766033
5.058246620031137E-5 ; 34.954496747851636
5.0815944256055996E-5 ; 34.8773249659127
5.1050499997540645E-5 ; 34.79979697521289
5.128613839913648E-5 ; 34.72191113156734
5.1522864458175614E-5 ; 34.64366578320186
5.1760683195056706E-5 ; 34.565059270718066
5.199959965335162E-5 ; 34.4860899270581
5.223961889991198E-5 ; 34.40675607746941
5.248074602497723E-5 ; 34.32705603946904
5.2722986142282214E-5 ; 34.246988122808084
5.2966344389165806E-5 ; 34.166550629435754
5.321082592667942E-5 ; 34.08815266941359
5.345643593969714E-5 ; 34.01386998410049
5.3703179637025216E-5 ; 33.939244425490664
5.395106225151279E-5 ; 33.864274410952866
5.4200089040162385E-5 ; 33.78895835055082
5.445026528424209E-5 ; 33.71329464700936
5.47015962893971E-5 ; 33.63728169568068
5.495408738576248E-5 ; 33.560917884510175
5.520774392807573E-5 ; 33.484201594002485
5.546257129579105E-5 ; 33.40713119718688
5.571857489319293E-5 ; 33.3297050595829
5.5975760149511043E-5 ; 33.25192153916564
5.623413251903491E-5 ; 33.17377898633105
5.6493697481230225E-5 ; 33.10120636576398
5.675446054085466E-5 ; 33.028686698609285
5.701642722807478E-5 ; 32.95583229587992
5.727960309858292E-5 ; 32.88264161250674
5.7543993733715664E-5 ; 32.80911309628876
5.780960474057175E-5 ; 32.73524518786045
5.807644175213124E-5 ; 32.66103632065849
5.8344510427374476E-5 ; 32.586484920888765
5.8613816451402846E-5 ; 32.51158940749274
5.888436553555884E-5 ; 32.43634819211409
5.9156163417547426E-5 ; 32.36075967906493
5.942921586155727E-5 ; 32.28597459089998
5.970352865838366E-5 ; 32.21551701985977
5.997910762555088E-5 ; 32.144734231448105
6.0255958607435806E-5 ; 32.07362472452978
6.053408747539136E-5 ; 32.00218699104076
6.081350012787176E-5 ; 31.930419515955982
6.109420249055714E-5 ; 31.85832077725741
6.137620051647945E-5 ; 31.78588924590163
6.165950018614822E-5 ; 31.713123385787608
6.194410750767812E-5 ; 31.64002165372387
6.223002851691589E-5 ; 31.56658249939594
6.251726927756862E-5 ; 31.493269889794927
6.28058358813318E-5 ; 31.426930043562756
6.309573444801929E-5 ; 31.360283986513274
6.338697112569263E-5 ; 31.29333030524157
6.367955209079162E-5 ; 31.22606757981872
6.397348354826482E-5 ; 31.158494383761788
6.426877173170194E-5 ; 31.090609284003424
6.456542290346549E-5 ; 31.022410840861546
6.486344335482387E-5 ; 30.95389760800878
6.516283940608428E-5 ; 30.885068132441898
6.546361740672748E-5 ; 30.815920954450828
6.576578373554199E-5 ; 30.74645460758782
6.606934480075965E-5 ; 30.676667618636245
6.637430704019089E-5 ; 30.60655850757954
6.668067692136219E-5 ; 30.536125787569596
6.698846094165258E-5 ; 30.465367964895346
6.729766562843182E-5 ; 30.394283538951044
6.760829753919819E-5 ; 30.32287100220456
6.792036326171844E-5 ; 30.2511288401652
6.82338694141669E-5 ; 30.179055531351747
6.85488226452662E-5 ; 30.106649547260115
6.886522963442762E-5 ; 30.037316277794385
6.918309709189363E-5 ; 29.973638525775137
6.950243175887962E-5 ; 29.909666850607167
6.982324040771718E-5 ; 29.845399895602835
7.014552984199714E-5 ; 29.780836297812396
7.046930689671467E-5 ; 29.715974687994947
7.079457843841373E-5 ; 29.65081369058945
7.112135136533296E-5 ; 29.58535192368558
7.144963260755134E-5 ; 29.519587998994453
7.177942912713615E-5 ; 29.453520521819073
7.211074791828991E-5 ; 29.387148091024823
7.244359600749906E-5 ; 29.320469299009726
7.277798045368242E-5 ; 29.253482731674712
7.311390834834172E-5 ; 29.1861869683934
7.345138681571143E-5 ; 29.118580581982158
7.379042301291015E-5 ; 29.050662138669733
7.413102413009176E-5 ; 28.98243019806698
7.447319739059889E-5 ; 28.913883313136107
7.481695005111537E-5 ; 28.845020030160157
7.51622894018206E-5 ; 28.77969410591021
7.550922276654341E-5 ; 28.718435110287682
7.585775750291836E-5 ; 28.656893355988696
7.620790100254114E-5 ; 28.595067537858505
7.65596606911257E-5 ; 28.532956344718002
7.691304402866098E-5 ; 28.47055845933605
7.726805850957021E-5 ; 28.40787255840136
7.762471166286911E-5 ; 28.344897312494545
7.798301105232594E-5 ; 28.281631386059864
7.83429642766212E-5 ; 28.21807343737702
7.870457896950985E-5 ; 28.15422211853253
7.906786279998245E-5 ; 28.09007607539126
7.943282347242822E-5 ; 28.025633947567627
7.979946872679769E-5 ; 27.960894368396893
8.01678063387679E-5 ; 27.895855964906
8.05378441199066E-5 ; 27.830517357784554
8.090958991783814E-5 ; 27.764877161355546
8.128305161640995E-5 ; 27.69957608390829
8.165823713585923E-5 ; 27.640617330343122
8.203515443298177E-5 ; 27.58138643553642
8.241381150130013E-5 ; 27.521882143341287
8.279421637123345E-5 ; 27.462103191812695
8.317637711026709E-5 ; 27.402048313180813
8.356030182312474E-5 ; 27.34171623382397
8.394599865193965E-5 ; 27.28110567424175
8.433347577642757E-5 ; 27.22021534902782
8.472274141405963E-5 ; 27.159043966842752
8.51138038202376E-5 ; 27.09759023038647
8.550667128846823E-5 ; 27.03585283637089
8.590135215053961E-5 ; 26.97383047549216
8.629785477669702E-5 ; 26.911521832403075
8.669618757582161E-5 ; 26.84892558568497
8.709635899560796E-5 ; 26.786040407819787
8.749837752274364E-5 ; 26.72286496516194
8.790225168308842E-5 ; 26.665884789452218
8.830799004185622E-5 ; 26.608667890689464
8.8715601203796E-5 ; 26.55118689072165
8.912509381337459E-5 ; 26.493440570512963
8.953647655495937E-5 ; 26.435427705400873
8.994975815300346E-5 ; 26.377147065069973
9.036494737223004E-5 ; 26.318597413526017
