Incident energy ; 
Incident energy ; 
Incident energy ; σ(E)
1.0E-5 ; 78.10355
1.122018454301963E-5 ; 73.7526285122171
1.2589254117941661E-5 ; 69.65393616473304
1.4125375446227526E-5 ; 65.79766353357577
1.5848931924611107E-5 ; 62.12881514420324
1.778279410038923E-5 ; 58.659004626341755
1.9952623149688786E-5 ; 55.38218295775567
2.238721138568338E-5 ; 52.32744398322277
2.511886431509577E-5 ; 49.41725593188681
2.818382931264455E-5 ; 46.67305460966825
3.1622776601683795E-5 ; 44.078112491270346
3.5481338923357534E-5 ; 41.647142987987664
3.9810717055349695E-5 ; 39.35217508775413
4.466835921509626E-5 ; 37.17879010693644
5.011872336272725E-5 ; 35.107778224449724
5.623413251903491E-5 ; 33.17377898633105
6.309573444801929E-5 ; 31.360283986513274
7.079457843841373E-5 ; 29.65081369058945
7.943282347242806E-5 ; 28.025633947567652
8.912509381337459E-5 ; 26.493440570512963
1.0E-4 ; 25.04462
1.122018454301963E-4 ; 23.68901201715618
1.258925411794166E-4 ; 22.414306136704138
1.412537544622754E-4 ; 21.21744202244438
1.5848931924611126E-4 ; 20.081198788899858
1.7782794100389227E-4 ; 19.009268059073428
1.9952623149688788E-4 ; 17.999784184493773
2.2387211385683378E-4 ; 17.061892277963377
2.5118864315095795E-4 ; 16.171362489096662
2.8183829312644523E-4 ; 15.334935634606076
3.1622776601683794E-4 ; 14.547434079132836
3.548133892335753E-4 ; 13.813454808303282
3.981071705534969E-4 ; 13.12432083607347
4.4668359215096305E-4 ; 12.475588214527194
5.01187233627272E-4 ; 11.861351595535863
5.623413251903491E-4 ; 11.29233898153376
6.30957344480193E-4 ; 10.763423634190536
7.079457843841374E-4 ; 10.269509491594937
7.943282347242813E-4 ; 9.804589829539463
8.91250938133745E-4 ; 9.371283849583472
0.001 ; 8.966659
0.001122018454301963 ; 8.593586610322152
0.0012589254117941662 ; 8.248249932683985
0.001412537544622754 ; 7.929603176125637
0.0015848931924611126 ; 7.632463314437823
0.0017782794100389228 ; 7.35775760955338
0.001995262314968879 ; 7.1047776813585655
0.0022387211385683377 ; 6.875777014489311
0.0025118864315095794 ; 6.663692474986851
0.002818382931264452 ; 6.470081911402239
0.0031622776601683794 ; 6.293204353294892
0.0035481338923357532 ; 6.133823960758476
0.003981071705534969 ; 5.989221059570527
0.0044668359215096305 ; 5.8578325127841735
0.005011872336272719 ; 5.737799323285073
0.005623413251903491 ; 5.631153298060142
0.00630957344480193 ; 5.53605958906245
0.00707945784384138 ; 5.450830826451054
0.007943282347242814 ; 5.373715816637398
0.00891250938133745 ; 5.304764125787098
0.01 ; 5.242951
0.01122018454301963 ; 5.188311111477046
0.012589254117941668 ; 5.139689640134427
0.01412537544622754 ; 5.096508830101339
0.015848931924611134 ; 5.057600595836598
0.01778279410038923 ; 5.022822413794423
0.01995262314968879 ; 4.991811555360782
0.02238721138568339 ; 4.964440529823169
0.025118864315095794 ; 4.939902724893389
0.028183829312644536 ; 4.918081898168234
0.03162277660168379 ; 4.898637465276994
0.03548133892335753 ; 4.881461600969526
0.03981071705534971 ; 4.865962551338113
0.0446683592150963 ; 4.852133506591396
0.05011872336272722 ; 4.839772672555412
0.05623413251903491 ; 4.828822763997493
0.0630957344480193 ; 4.819134941369317
0.07079457843841377 ; 4.810500892986057
0.07943282347242814 ; 4.802721459171853
0.08912509381337455 ; 4.795786282346053
0.1 ; 4.789582
0.11220184543019633 ; 4.78410674967136
0.12589254117941673 ; 4.779239306926195
0.1412537544622754 ; 4.774918882709778
0.15848931924611134 ; 4.771027087925444
0.1778279410038923 ; 4.767548628261802
0.19952623149688792 ; 4.764446674486818
0.22387211385683395 ; 4.761727086661036
0.25118864315095796 ; 4.759271945377585
0.28183829312644537 ; 4.757085290508909
0.31622776601683794 ; 4.755131482646754
0.35481338923357547 ; 4.753406198634604
0.3981071705534972 ; 4.751867279152122
0.4466835921509631 ; 4.750529665194179
0.5011872336272722 ; 4.74924585229606
0.5623413251903491 ; 4.74825955910733
0.6309573444801932 ; 4.747184898973393
0.7079457843841379 ; 4.746356503360027
0.7943282347242815 ; 4.7455635591573175
0.8912509381337456 ; 4.744850264588845
1.0 ; 4.744223
1.1220184543019633 ; 4.743730533518438
1.2589254117941673 ; 4.743189937089803
1.4125375446227544 ; 4.742775798779697
1.5848931924611136 ; 4.742376665497705
1.7782794100389228 ; 4.742018051414265
1.9952623149688797 ; 4.7417038601679256
2.23872113856834 ; 4.741443000708563
2.51188643150958 ; 4.741191411098664
2.8183829312644537 ; 4.740965517304692
3.1622776601683795 ; 4.740766603758588
3.548133892335755 ; 4.740592377762513
3.981071705534973 ; 4.7404428699043555
4.466835921509632 ; 4.7402973811497136
5.011872336272724 ; 4.740166005447506
5.623413251903491 ; 4.74006326657368
6.309573444801933 ; 4.73995123245667
7.07945784384138 ; 4.739863773588939
7.943282347242816 ; 4.739779473534587
8.912509381337456 ; 4.739702599399594
10.0 ; 4.739633
11.220184543019636 ; 4.739578335732473
12.589254117941675 ; 4.739518179569872
14.125375446227547 ; 4.739469638135899
15.848931924611142 ; 4.73942196520658
17.78279410038923 ; 4.739377570353272
19.952623149688797 ; 4.7393359096355265
22.3872113856834 ; 4.739298714386937
25.11886431509581 ; 4.739261208597735
28.18382931264455 ; 4.739224705820665
31.622776601683793 ; 4.739188620158812
35.48133892335755 ; 4.739154213467136
39.810717055349734 ; 4.739120155692499
44.668359215096324 ; 4.739083676928214
50.11872336272725 ; 4.739045268664086
56.23413251903491 ; 4.739007597743683
63.09573444801933 ; 4.738965616228335
70.79457843841381 ; 4.738921886794469
79.43282347242817 ; 4.738874240066187
89.12509381337459 ; 4.73882254951217
100.0 ; 4.738766
112.20184543019641 ; 4.738704990772849
125.89254117941675 ; 4.738636680100692
141.2537544622754 ; 4.738562331828403
158.48931924611142 ; 4.738479251267619
177.82794100389228 ; 4.738386652118462
199.52623149688807 ; 4.738284236187335
223.872113856834 ; 4.7381693236225955
251.18864315095823 ; 4.738041119665295
281.8382931264455 ; 4.737898270319893
316.22776601683796 ; 4.7377387031656815
354.81338923357566 ; 4.737559730052479
398.1071705534973 ; 4.737359424157573
446.6835921509635 ; 4.737134966361544
501.18723362727246 ; 4.736883529227446
562.341325190349 ; 4.736601731173523
630.9573444801937 ; 4.7362855962153905
707.945784384138 ; 4.735931449391833
794.3282347242822 ; 4.735534090120268
891.2509381337459 ; 4.735088245684585
1000.0 ; 4.734588
1122.018454301964 ; 4.734023298593491
1258.9254117941675 ; 4.733389693194217
1412.5375446227554 ; 4.732678776243486
1584.893192461114 ; 4.73188179345083
1778.2794100389228 ; 4.73098812289034
1995.262314968881 ; 4.729983926006325
2238.72113856834 ; 4.72885815345526
2511.886431509582 ; 4.727595037140699
2818.382931264455 ; 4.726177797325834
3162.2776601683795 ; 4.724587628099381
3548.1338923357566 ; 4.722803428881839
3981.0717055349733 ; 4.720801524433607
4466.835921509635 ; 4.718556218042625
5011.872336272725 ; 4.716052634056672
5623.413251903491 ; 4.713973394943528
6309.573444801937 ; 4.71164059326394
7079.457843841381 ; 4.709024834029765
7943.282347242822 ; 4.70608954927113
8912.509381337459 ; 4.702795598110958
10000.0 ; 4.699099
11220.18454301963 ; 4.694950372553733
12589.254117941688 ; 4.690295535998998
14125.375446227554 ; 4.685072723482826
15848.93192461114 ; 4.679246588733307
17782.794100389227 ; 4.672748811822692
19952.62314968879 ; 4.665458186217046
22387.211385683422 ; 4.657325713971818
25118.864315095823 ; 4.64820199318758
28183.82931264455 ; 4.637965010095766
31622.776601683792 ; 4.626543837214444
35481.33892335753 ; 4.61381058155292
39810.71705534977 ; 4.599523633717346
44668.359215096345 ; 4.583586781774485
50118.72336272725 ; 4.565819085239273
56234.13251903491 ; 4.5462497759390885
63095.73444801943 ; 4.524292697425094
70794.57843841388 ; 4.49965701256335
79432.82347242821 ; 4.472404698727926
89125.0938133746 ; 4.442241708052778
100000.0 ; 4.408399
112201.84543019652 ; 4.370183308186442
125892.54117941688 ; 4.327369181007456
141253.75446227554 ; 4.286952551335595
158489.3192461114 ; 4.265587226556636
177827.94100389228 ; 4.1776737358084
199526.2314968883 ; 4.117209993599529
223872.11385683424 ; 4.051445292586547
251188.6431509582 ; 3.979728546097924
281838.2931264455 ; 3.9009401481488517
316227.7660168379 ; 3.815244606662646
354813.389233576 ; 3.7225366691934316
398107.17055349774 ; 3.6225232224558113
446683.5921509635 ; 3.515416503479504
501187.2336272725 ; 3.400897039138401
562341.3251903491 ; 3.2793565597322454
630957.3444801943 ; 3.150729121179809
707945.7843841388 ; 3.0155875159595738
794328.2347242822 ; 2.874384076196737
891250.9381337459 ; 2.728103637829801
1000000.0 ; 2.5774
1122018.4543019652 ; 2.4239649286548497
1258925.4117941686 ; 2.2684378849899454
1412537.5446227554 ; 2.1132117080546102
1584893.1924611141 ; 1.9592763591778974
1778279.410038923 ; 1.8126125555336963
1995262.3149688828 ; 1.6732601827439921
2238721.138568342 ; 1.6141227914372096
2511886.4315095823 ; 1.597996497295327
2818382.931264455 ; 2.139778729903697
3162277.6601683795 ; 1.8491198267457356
3548133.8923357604 ; 2.6393664218837753
3981071.7055349774 ; 1.9638785347012382
4466835.921509635 ; 1.7315332589429897
5011872.336272725 ; 1.1268786103379635
5623413.251903491 ; 0.9509494057650782
6309573.444801942 ; 2.0268672655242006
7079457.843841388 ; 0.5706586975593797
7943282.347242822 ; 1.4031097962425232
8912509.381337458 ; 0.6446668276677224
1.0E7 ; 0.6567711
1.1220184543019652E7 ; 0.8797905082117817
1.2589254117941687E7 ; 0.8685714516265273
1.4125375446227554E7 ; 0.8285968419071682
1.5848931924611142E7 ; 1.015920761590063
1.7782794100389227E7 ; 0.896980638102409
1.995262314968883E7 ; 0.9854597502979402
2.2387211385683425E7 ; 0.9189360569284172
2.5118864315095823E7 ; 0.9173314952054695
2.818382931264455E7 ; 0.8867137973785938
3.162277660168379E7 ; 0.8395464135309814
3.5481338923357606E7 ; 0.7919074837392959
3.9810717055349775E7 ; 0.73072171838942
4.466835921509635E7 ; 0.6661951079396217
5.011872336272725E7 ; 0.6016764838246529
5.623413251903491E7 ; 0.538294672326815
6.309573444801943E7 ; 0.478245311507266
7.079457843841387E7 ; 0.42276555562126095
7.943282347242822E7 ; 0.37103541534025863
8.91250938133746E7 ; 0.3214055901027522
1.0E8 ; 0.262
1.1220184543019652E8 ; 0.20653861664973847
1.2589254117941661E8 ; 0.16611542672441698
1.4125375446227553E8 ; 0.1294531231853335
1.5E8 ; 0.113
